t a e i theta u omega type
-1999000	0.9939446957	0.07577	0.21857	0.963836	-0.003032	4.589889	-1
-1998000	0.9939602966	0.07583	0.21855	1.121428	-0.003024	4.590815	-1
-1997000	0.9939965771	0.07580	0.21856	1.278465	-0.003006	4.591247	-1
-1996000	0.9940419231	0.07578	0.21854	1.433914	-0.002984	4.590973	-1
-1995000	0.9941200205	0.07581	0.21854	1.587450	-0.002944	4.591773	-1
-1994000	0.9941808463	0.07587	0.21851	1.739327	-0.002914	4.592175	-1
-1993000	0.9942657728	0.07581	0.21852	1.889378	-0.002871	4.592050	-1
-1992000	0.9943201206	0.07580	0.21850	2.038428	-0.002844	4.592506	-1
-1991000	0.9943997394	0.07578	0.21851	2.185689	-0.002804	4.593178	-1
-1990000	0.9944758832	0.07584	0.21849	2.330881	-0.002766	4.592425	-1
-1989000	0.9945107550	0.07579	0.21849	2.474317	-0.002748	4.593881	-1
-1988000	0.9945556579	0.07578	0.21848	2.615599	-0.002726	4.593401	-1
-1987000	0.9946045016	0.07584	0.21846	2.755625	-0.002701	4.593683	-1
-1986000	0.9946007210	0.07576	0.21847	2.895089	-0.002703	4.593575	-1
-1985000	0.9946363641	0.07581	0.21845	3.034304	-0.002685	4.594414	-1
-1984000	0.9946467313	0.07580	0.21846	3.173767	-0.002680	4.595051	-1
-1983000	0.9946223057	0.07578	0.21844	3.313311	-0.002693	4.594309	-1
-1982000	0.9946158674	0.07579	0.21845	3.453052	-0.002696	4.594884	-1
-1981000	0.9945793503	0.07585	0.21843	3.593155	-0.002714	4.595493	-1
-1980000	0.9945367664	0.07582	0.21844	3.733579	-0.002735	4.595251	-1
-1979000	0.9944915748	0.07579	0.21843	3.875587	-0.002758	4.595606	-1
-1978000	0.9944448585	0.07579	0.21844	4.019487	-0.002781	4.596696	-1
-1977000	0.9943778916	0.07585	0.21843	4.165273	-0.002815	4.596008	-1
-1976000	0.9942918945	0.07583	0.21843	4.313672	-0.002858	4.596703	-1
-1975000	0.9942114028	0.07576	0.21843	4.463533	-0.002899	4.596652	-1
-1974000	0.9941521948	0.07584	0.21842	4.614987	-0.002928	4.596953	-1
-1973000	0.9940624162	0.07580	0.21843	4.767801	-0.002973	4.597192	-1
-1972000	0.9940247230	0.07581	0.21842	4.921838	-0.002992	4.597688	-1
-1971000	0.9939911173	0.07582	0.21843	5.077667	-0.003009	4.598676	-1
-1970000	0.9939440606	0.07580	0.21841	5.234624	-0.003033	4.598105	-1
-1969000	0.9939851394	0.07582	0.21842	5.391908	-0.003012	4.598599	-1
-1968000	0.9940560389	0.07584	0.21839	5.548022	-0.002976	4.600061	-1
-1967000	0.9942598232	0.07584	0.21839	5.699945	-0.002874	4.600994	-1
-1966000	0.9946809056	0.07584	0.21836	5.844395	-0.002663	4.603650	-1
-1965000	0.9954247963	0.07580	0.21829	5.973047	-0.002290	4.608690	-1
-1964000	0.9980433881	0.07595	0.21799	6.060732	-0.000979	4.633811	-1
-1963000	1.0033247611	0.07673	0.21718	6.038715	0.001661	4.692060	-1
-1962000	1.0049318693	0.07688	0.21705	5.932296	0.002463	4.704961	-1
-1961000	1.0055339077	0.07683	0.21698	5.797841	0.002763	4.708900	-1
-1960000	1.0058591075	0.07685	0.21697	5.651488	0.002925	4.710804	-1
-1959000	1.0059976788	0.07685	0.21694	5.499215	0.002994	4.711811	-1
-1958000	1.0060713001	0.07682	0.21694	5.343988	0.003031	4.712453	-1
-1957000	1.0060753407	0.07685	0.21692	5.187674	0.003033	4.712782	-1
-1956000	1.0060485439	0.07688	0.21693	5.032098	0.003020	4.713270	-1
-1955000	1.0060014537	0.07686	0.21692	4.877991	0.002996	4.713631	-1
-1954000	1.0059515567	0.07681	0.21693	4.725639	0.002971	4.714245	-1
-1953000	1.0058754020	0.07683	0.21692	4.574439	0.002933	4.713993	-1
-1952000	1.0057917397	0.07688	0.21692	4.424395	0.002892	4.714216	-1
-1951000	1.0057366207	0.07688	0.21692	4.275869	0.002864	4.714761	-1
-1950000	1.0056639983	0.07683	0.21693	4.129268	0.002828	4.715638	-1
-1949000	1.0055835337	0.07682	0.21692	3.984890	0.002788	4.715219	-1
-1948000	1.0055151681	0.07687	0.21691	3.842639	0.002754	4.715162	-1
-1947000	1.0054944614	0.07688	0.21692	3.702116	0.002743	4.715553	-1
-1946000	1.0054458977	0.07684	0.21691	3.562687	0.002719	4.716738	-1
-1945000	1.0053948873	0.07681	0.21692	3.423705	0.002694	4.716469	-1
-1944000	1.0053765521	0.07686	0.21690	3.284946	0.002685	4.716174	-1
-1943000	1.0054044632	0.07686	0.21691	3.146234	0.002699	4.716479	-1
-1942000	1.0054074690	0.07684	0.21689	3.007791	0.002700	4.717618	-1
-1941000	1.0053904942	0.07682	0.21690	2.869748	0.002692	4.717684	-1
-1940000	1.0054308207	0.07685	0.21688	2.731478	0.002712	4.717165	-1
-1939000	1.0055006342	0.07685	0.21688	2.592220	0.002746	4.717622	-1
-1938000	1.0055565945	0.07685	0.21686	2.451324	0.002774	4.718620	-1
-1937000	1.0055746658	0.07682	0.21687	2.308527	0.002783	4.718925	-1
-1936000	1.0056491786	0.07684	0.21685	2.163895	0.002821	4.718181	-1
-1935000	1.0057447861	0.07685	0.21684	2.017703	0.002868	4.718659	-1
-1934000	1.0058287155	0.07686	0.21684	1.869879	0.002910	4.719511	-1
-1933000	1.0058616728	0.07684	0.21683	1.720629	0.002926	4.720212	-1
-1932000	1.0059325098	0.07682	0.21683	1.569784	0.002962	4.719486	-1
-1931000	1.0060171973	0.07684	0.21680	1.417160	0.003004	4.719626	-1
-1930000	1.0060618055	0.07685	0.21681	1.262544	0.003026	4.720471	-1
-1929000	1.0060660859	0.07687	0.21679	1.106423	0.003028	4.721616	-1
-1928000	1.0060606779	0.07680	0.21680	0.950095	0.003026	4.721442	-1
-1927000	1.0060183170	0.07680	0.21679	0.795026	0.003005	4.721461	-1
-1926000	1.0058632472	0.07682	0.21680	0.643049	0.002927	4.722935	-1
-1925000	1.0056016363	0.07688	0.21680	0.496344	0.002797	4.724527	-1
-1924000	1.0049943966	0.07676	0.21683	0.360268	0.002494	4.728495	-1
-1923000	1.0032595937	0.07670	0.21687	0.249615	0.001628	4.743714	-1
-1922000	0.9978367015	0.07744	0.21678	0.218424	-0.001082	4.804903	-1
-1921000	0.9956738229	0.07747	0.21676	0.304221	-0.002165	4.823782	-1
-1920000	0.9946720003	0.07748	0.21679	0.432205	-0.002668	4.831685	-1
-1919000	0.9942672640	0.07744	0.21681	0.576730	-0.002871	4.835209	-1
-1918000	0.9940644708	0.07745	0.21681	0.728831	-0.002972	4.835851	-1
-1917000	0.9940190772	0.07747	0.21681	0.884577	-0.002995	4.835929	-1
-1916000	0.9939636911	0.07742	0.21680	1.041517	-0.003023	4.836745	-1
-1915000	0.9939734074	0.07744	0.21681	1.197978	-0.003018	4.837232	-1
-1914000	0.9940400459	0.07746	0.21679	1.353583	-0.002984	4.837558	-1
-1913000	0.9940830338	0.07739	0.21679	1.507874	-0.002963	4.837630	-1
-1912000	0.9941558776	0.07745	0.21678	1.660985	-0.002926	4.838444	-1
-1911000	0.9942273266	0.07747	0.21677	1.812989	-0.002891	4.839252	-1
-1910000	0.9943031825	0.07743	0.21676	1.962798	-0.002853	4.838344	-1
-1909000	0.9943490899	0.07741	0.21675	2.111046	-0.002830	4.839137	-1
-1908000	0.9944132387	0.07743	0.21675	2.256651	-0.002797	4.839522	-1
-1907000	0.9944921661	0.07747	0.21674	2.399837	-0.002758	4.839592	-1
-1906000	0.9945346536	0.07740	0.21674	2.541712	-0.002736	4.840276	-1
-1905000	0.9945649433	0.07740	0.21672	2.682528	-0.002721	4.840306	-1
-1904000	0.9946202321	0.07746	0.21672	2.823016	-0.002694	4.840093	-1
-1903000	0.9946183112	0.07742	0.21670	2.963203	-0.002695	4.840356	-1
-1902000	0.9946355517	0.07739	0.21671	3.102722	-0.002686	4.840844	-1
-1901000	0.9946618911	0.07744	0.21670	3.241619	-0.002673	4.841356	-1
-1900000	0.9946335723	0.07739	0.21671	3.380017	-0.002687	4.841094	-1
-1899000	0.9946178968	0.07744	0.21669	3.518834	-0.002695	4.841350	-1
-1898000	0.9945801571	0.07745	0.21669	3.659240	-0.002714	4.842450	-1
-1897000	0.9945349462	0.07743	0.21669	3.801070	-0.002736	4.841603	-1
-1896000	0.9944642847	0.07740	0.21669	3.944985	-0.002772	4.842405	-1
-1895000	0.9944156065	0.07741	0.21669	4.090401	-0.002796	4.842983	-1
-1894000	0.9943467848	0.07747	0.21668	4.236661	-0.002831	4.843189	-1
-1893000	0.9942563914	0.07743	0.21669	4.384717	-0.002876	4.843341	-1
-1892000	0.9941640664	0.07739	0.21668	4.534229	-0.002922	4.843532	-1
-1891000	0.9941036254	0.07745	0.21669	4.686243	-0.002953	4.843356	-1
-1890000	0.9940311010	0.07743	0.21668	4.840491	-0.002989	4.844071	-1
-1889000	0.9939817000	0.07739	0.21669	4.996397	-0.003014	4.844387	-1
-1888000	0.9939811766	0.07745	0.21668	5.153582	-0.003014	4.845053	-1
-1887000	0.9939664413	0.07742	0.21668	5.310468	-0.003021	4.845060	-1
-1886000	0.9940238939	0.07747	0.21666	5.466224	-0.002993	4.845428	-1
-1885000	0.9941475597	0.07745	0.21665	5.619723	-0.002931	4.847168	-1
-1884000	0.9944155616	0.07743	0.21663	5.768198	-0.002796	4.847814	-1
-1883000	0.9950092476	0.07744	0.21657	5.907179	-0.002499	4.852411	-1
-1882000	0.9965481428	0.07777	0.21640	6.023756	-0.001727	4.864754	-1
-1881000	0.9989578664	0.07877	0.21566	6.082835	-0.000521	4.882932	-1
-1880000	1.0015120151	0.08123	0.21425	6.071359	0.000756	4.895911	-1
-1879000	1.0043335974	0.08227	0.21356	5.992547	0.002164	4.919208	-1
-1878000	1.0052680628	0.08237	0.21349	5.868504	0.002631	4.925116	-1
-1877000	1.0057203573	0.08241	0.21342	5.726398	0.002856	4.927343	-1
-1876000	1.0059314675	0.08238	0.21342	5.576912	0.002961	4.928794	-1
-1875000	1.0060527619	0.08239	0.21339	5.423854	0.003022	4.929600	-1
-1874000	1.0060671929	0.08239	0.21339	5.269279	0.003029	4.930543	-1
-1873000	1.0060793624	0.08244	0.21338	5.114003	0.003035	4.930540	-1
-1872000	1.0060183764	0.08241	0.21339	4.959168	0.003005	4.931083	-1
-1871000	1.0059832902	0.08237	0.21338	4.805178	0.002987	4.931176	-1
-1870000	1.0058983812	0.08240	0.21338	4.652218	0.002945	4.931736	-1
-1869000	1.0058384397	0.08245	0.21338	4.500908	0.002915	4.931624	-1
-1868000	1.0057554327	0.08243	0.21338	4.352190	0.002874	4.932288	-1
-1867000	1.0056930528	0.08236	0.21338	4.206029	0.002842	4.932557	-1
-1866000	1.0056077408	0.08239	0.21337	4.061729	0.002800	4.932559	-1
-1865000	1.0055395634	0.08244	0.21338	3.918625	0.002766	4.932512	-1
-1864000	1.0054988160	0.08244	0.21337	3.776524	0.002746	4.933204	-1
-1863000	1.0054556607	0.08237	0.21338	3.635491	0.002724	4.933937	-1
-1862000	1.0054037666	0.08236	0.21337	3.495675	0.002698	4.933644	-1
-1861000	1.0053661849	0.08242	0.21337	3.357101	0.002679	4.933427	-1
-1860000	1.0053847694	0.08244	0.21336	3.219376	0.002689	4.933876	-1
-1859000	1.0053883255	0.08238	0.21337	3.082109	0.002690	4.935104	-1
-1858000	1.0053753113	0.08235	0.21336	2.944702	0.002684	4.934896	-1
-1857000	1.0053909675	0.08240	0.21335	2.806285	0.002692	4.934511	-1
-1856000	1.0054649461	0.08242	0.21334	2.666432	0.002729	4.934646	-1
-1855000	1.0055139718	0.08240	0.21333	2.525486	0.002753	4.936211	-1
-1854000	1.0055379916	0.08236	0.21334	2.383719	0.002765	4.936210	-1
-1853000	1.0056011221	0.08239	0.21332	2.241152	0.002797	4.935670	-1
-1852000	1.0057051685	0.08239	0.21332	2.097080	0.002848	4.935768	-1
-1851000	1.0057939236	0.08241	0.21329	1.950941	0.002893	4.937075	-1
-1850000	1.0058260668	0.08237	0.21331	1.802465	0.002909	4.937519	-1
-1849000	1.0058932984	0.08237	0.21328	1.651679	0.002942	4.936813	-1
-1848000	1.0059899054	0.08237	0.21328	1.499069	0.002990	4.936979	-1
-1847000	1.0060640018	0.08240	0.21327	1.344824	0.003027	4.937914	-1
-1846000	1.0060582833	0.08237	0.21328	1.190031	0.003025	4.939010	-1
-1845000	1.0060599885	0.08235	0.21327	1.035164	0.003025	4.938442	-1
-1844000	1.0060567701	0.08234	0.21326	0.880695	0.003024	4.938675	-1
-1843000	1.0059698333	0.08237	0.21326	0.727218	0.002980	4.939740	-1
-1842000	1.0057460997	0.08241	0.21326	0.576375	0.002869	4.942194	-1
-1841000	1.0053679642	0.08233	0.21328	0.432631	0.002680	4.943253	-1
-1840000	1.0044234948	0.08233	0.21328	0.305649	0.002209	4.949489	-1
-1839000	1.0016335162	0.08311	0.21299	0.221726	0.000816	4.976189	-1
-1838000	0.9982388201	0.08576	0.21201	0.219652	-0.000881	5.006107	-1
-1837000	0.9959504924	0.08621	0.21167	0.297577	-0.002027	5.024768	-1
-1836000	0.9947918282	0.08633	0.21165	0.422282	-0.002608	5.034111	-1
-1835000	0.9942833040	0.08631	0.21167	0.564577	-0.002862	5.037028	-1
-1834000	0.9941109634	0.08640	0.21167	0.714958	-0.002949	5.037060	-1
-1833000	0.9940235213	0.08632	0.21168	0.869419	-0.002993	5.039134	-1
-1832000	0.9939632752	0.08631	0.21168	1.025817	-0.003023	5.039277	-1
-1831000	0.9940048452	0.08637	0.21167	1.182782	-0.003002	5.040164	-1
-1830000	0.9940204108	0.08632	0.21166	1.339430	-0.002994	5.039750	-1
-1829000	0.9940918147	0.08636	0.21165	1.494393	-0.002959	5.040587	-1
-1828000	0.9941281278	0.08634	0.21165	1.647941	-0.002940	5.040790	-1
-1827000	0.9941819257	0.08631	0.21164	1.799040	-0.002913	5.040927	-1
-1826000	0.9942768162	0.08628	0.21164	1.948182	-0.002866	5.041229	-1
-1825000	0.9943416558	0.08636	0.21162	2.095741	-0.002833	5.042327	-1
-1824000	0.9944121402	0.08631	0.21162	2.241392	-0.002798	5.042056	-1
-1823000	0.9944988408	0.08633	0.21160	2.386000	-0.002754	5.042027	-1
-1822000	0.9945024170	0.08626	0.21161	2.529018	-0.002753	5.042660	-1
-1821000	0.9945765962	0.08635	0.21159	2.670496	-0.002715	5.042014	-1
-1820000	0.9946209110	0.08632	0.21159	2.810505	-0.002693	5.043507	-1
-1819000	0.9946299442	0.08627	0.21159	2.949134	-0.002689	5.043092	-1
-1818000	0.9946793377	0.08634	0.21158	3.087495	-0.002664	5.043889	-1
-1817000	0.9946509893	0.08629	0.21158	3.226216	-0.002678	5.043357	-1
-1816000	0.9946528484	0.08633	0.21156	3.365512	-0.002677	5.043737	-1
-1815000	0.9946113674	0.08628	0.21157	3.505972	-0.002698	5.044402	-1
-1814000	0.9945629157	0.08630	0.21156	3.646854	-0.002722	5.044488	-1
-1813000	0.9945460895	0.08629	0.21157	3.787999	-0.002731	5.044682	-1
-1812000	0.9944811797	0.08635	0.21155	3.930208	-0.002763	5.045359	-1
-1811000	0.9943946414	0.08629	0.21157	4.073826	-0.002807	5.045590	-1
-1810000	0.9943372256	0.08631	0.21155	4.220100	-0.002835	5.045225	-1
-1809000	0.9942353432	0.08624	0.21157	4.368675	-0.002887	5.046351	-1
-1808000	0.9941749360	0.08631	0.21155	4.519612	-0.002917	5.045643	-1
-1807000	0.9941248934	0.08634	0.21156	4.672130	-0.002942	5.047022	-1
-1806000	0.9940350134	0.08626	0.21156	4.825645	-0.002987	5.046684	-1
-1805000	0.9940187888	0.08635	0.21155	4.980191	-0.002995	5.047459	-1
-1804000	0.9939654884	0.08629	0.21155	5.135887	-0.003022	5.047162	-1
-1803000	0.9939700038	0.08634	0.21154	5.292316	-0.003020	5.047484	-1
-1802000	0.9940279679	0.08628	0.21155	5.448879	-0.002991	5.048809	-1
-1801000	0.9941244639	0.08631	0.21152	5.603869	-0.002942	5.049179	-1
-1800000	0.9944134386	0.08631	0.21152	5.753708	-0.002797	5.050784	-1
-1799000	0.9949814247	0.08640	0.21143	5.893665	-0.002512	5.054636	-1
-1798000	0.9962008708	0.08671	0.21130	6.011785	-0.001901	5.062496	-1
-1797000	0.9977549772	0.08750	0.21061	6.087217	-0.001123	5.068152	0
-1796000	0.9972961224	0.08825	0.21023	6.146381	-0.001353	5.050290	0
-1795000	0.9966310239	0.08829	0.21026	6.223627	-0.001686	5.032501	0
-1794000	0.9967114661	0.08818	0.21036	0.026852	-0.001646	5.019920	0
-1793000	0.9972920392	0.08796	0.21038	0.109491	-0.001355	5.003266	0
-1792000	0.9982335255	0.08811	0.21050	0.170636	-0.000884	4.982034	0
-1791000	1.0004726921	0.08891	0.20974	0.182886	0.000236	4.947860	0
-1790000	1.0025685428	0.08939	0.20940	0.140113	0.001283	4.915938	0
-1789000	1.0034191405	0.08936	0.20939	0.063524	0.001708	4.897518	0
-1788000	1.0033655658	0.08933	0.20944	6.259925	0.001681	4.885544	0
-1787000	1.0028628707	0.08935	0.20950	6.176094	0.001430	4.870005	0
-1786000	1.0021555602	0.08951	0.20950	6.111585	0.001077	4.851712	0
-1785000	1.0002522933	0.09071	0.20895	6.085451	0.000126	4.818318	0
-1784000	0.9985194356	0.09252	0.20814	6.095285	-0.000741	4.787573	0
-1783000	0.9968910789	0.09306	0.20808	6.150496	-0.001556	4.761247	0
-1782000	0.9966927086	0.09317	0.20807	6.233179	-0.001655	4.748620	0
-1781000	0.9966689722	0.09314	0.20811	0.040335	-0.001667	4.736529	0
-1780000	0.9968815325	0.09318	0.20809	0.124532	-0.001561	4.723948	0
-1779000	0.9988749187	0.09328	0.20799	0.179709	-0.000563	4.695497	0
-1778000	1.0023245259	0.09357	0.20780	0.162541	0.001162	4.652016	0
-1777000	1.0033613969	0.09375	0.20779	0.090740	0.001679	4.633892	0
-1776000	1.0034098503	0.09389	0.20773	0.001544	0.001703	4.622427	0
-1775000	1.0032217691	0.09397	0.20778	6.195144	0.001610	4.609475	0
-1774000	1.0025185153	0.09413	0.20773	6.121175	0.001258	4.593196	0
-1773000	0.9993350010	0.09481	0.20772	6.096248	-0.000333	4.553077	0
-1772000	0.9970222107	0.09544	0.20774	6.145423	-0.001490	4.522497	0
-1771000	0.9966023561	0.09564	0.20775	6.228235	-0.001700	4.508947	0
-1770000	0.9966507045	0.09582	0.20767	0.035773	-0.001676	4.497148	0
-1769000	0.9969112720	0.09603	0.20770	0.121384	-0.001546	4.485312	0
-1768000	0.9983364300	0.09610	0.20760	0.180398	-0.000832	4.462707	0
-1767000	1.0014746428	0.09569	0.20784	0.176404	0.000737	4.419933	0
-1766000	1.0032020048	0.09598	0.20779	0.115746	0.001600	4.395183	0
-1765000	1.0033854543	0.09627	0.20774	0.031880	0.001691	4.383817	0
-1764000	1.0032634384	0.09651	0.20767	6.226093	0.001630	4.371882	0
-1763000	1.0030056311	0.09674	0.20766	6.145598	0.001502	4.359686	0
-1762000	1.0008991371	0.09704	0.20774	6.098338	0.000449	4.331043	0
-1761000	0.9977963566	0.09741	0.20805	6.119481	-0.001102	4.292457	0
-1760000	0.9966663476	0.09789	0.20804	6.189082	-0.001668	4.273680	0
-1759000	0.9966635991	0.09816	0.20796	6.275915	-0.001670	4.263516	0
-1758000	0.9968845237	0.09849	0.20787	0.081197	-0.001559	4.250991	0
-1757000	0.9973061313	0.09872	0.20781	0.157203	-0.001348	4.237084	0
-1756000	0.9981076090	0.09805	0.20822	0.207560	-0.000947	4.217478	-1
-1755000	0.9958884345	0.09664	0.20898	0.281991	-0.002058	4.227674	-1
-1754000	0.9948160171	0.09657	0.20911	0.402612	-0.002595	4.233654	-1
-1753000	0.9943795165	0.09644	0.20914	0.543464	-0.002814	4.235653	-1
-1752000	0.9941353982	0.09643	0.20915	0.693266	-0.002937	4.236671	-1
-1751000	0.9940133328	0.09644	0.20914	0.848028	-0.002998	4.238486	-1
-1750000	0.9939787663	0.09645	0.20914	1.005252	-0.003015	4.238263	-1
-1749000	0.9939902553	0.09644	0.20913	1.162452	-0.003009	4.238707	-1
-1748000	0.9940071889	0.09648	0.20914	1.319097	-0.003001	4.238891	-1
-1747000	0.9940515112	0.09646	0.20912	1.473823	-0.002979	4.239831	-1
-1746000	0.9941294307	0.09642	0.20913	1.626739	-0.002940	4.239471	-1
-1745000	0.9941747278	0.09642	0.20910	1.778200	-0.002917	4.240638	-1
-1744000	0.9942493450	0.09642	0.20911	1.928004	-0.002880	4.240050	-1
-1743000	0.9943492830	0.09650	0.20908	2.076599	-0.002829	4.240656	-1
-1742000	0.9943859126	0.09638	0.20909	2.223335	-0.002811	4.241006	-1
-1741000	0.9944761533	0.09647	0.20907	2.367917	-0.002766	4.240913	-1
-1740000	0.9945325289	0.09641	0.20907	2.510639	-0.002738	4.241520	-1
-1739000	0.9945743881	0.09643	0.20906	2.651313	-0.002717	4.241163	-1
-1738000	0.9946198939	0.09644	0.20905	2.791040	-0.002694	4.242617	-1
-1737000	0.9946372988	0.09645	0.20905	2.930565	-0.002685	4.242200	-1
-1736000	0.9946648422	0.09644	0.20903	3.069697	-0.002671	4.242369	-1
-1735000	0.9946666775	0.09645	0.20904	3.209389	-0.002670	4.242474	-1
-1734000	0.9946326450	0.09646	0.20902	3.348851	-0.002687	4.243544	-1
-1733000	0.9946267783	0.09643	0.20903	3.488426	-0.002690	4.243125	-1
-1732000	0.9945747042	0.09646	0.20901	3.628360	-0.002716	4.244000	-1
-1731000	0.9945150889	0.09643	0.20902	3.768975	-0.002746	4.243638	-1
-1730000	0.9944883321	0.09651	0.20901	3.911487	-0.002760	4.243884	-1
-1729000	0.9943886443	0.09639	0.20902	4.055913	-0.002810	4.244492	-1
-1728000	0.9943370722	0.09647	0.20901	4.202629	-0.002836	4.244212	-1
-1727000	0.9942646979	0.09646	0.20901	4.351359	-0.002872	4.245069	-1
-1726000	0.9941628422	0.09646	0.20901	4.501453	-0.002923	4.244631	-1
-1725000	0.9941293687	0.09648	0.20900	4.652752	-0.002940	4.246075	-1
-1724000	0.9940491243	0.09647	0.20901	4.805759	-0.002980	4.245830	-1
-1723000	0.9940187666	0.09648	0.20900	4.960120	-0.002995	4.245723	-1
-1722000	0.9940016537	0.09646	0.20901	5.116399	-0.003004	4.246238	-1
-1721000	0.9939621704	0.09650	0.20898	5.273566	-0.003024	4.247513	-1
-1720000	0.9940270503	0.09648	0.20899	5.430514	-0.002991	4.247562	-1
-1719000	0.9941451000	0.09648	0.20896	5.585262	-0.002932	4.248828	-1
-1718000	0.9943929711	0.09644	0.20897	5.734812	-0.002808	4.250138	-1
-1717000	0.9948568045	0.09651	0.20892	5.874904	-0.002575	4.252129	-1
-1716000	0.9961191068	0.09615	0.20889	5.993034	-0.001942	4.261435	-1
-1715000	1.0007391067	0.09436	0.20925	6.047184	0.000369	4.301291	-1
-1714000	1.0042817571	0.09348	0.20946	5.982530	0.002139	4.332023	-1
-1713000	1.0052110818	0.09331	0.20937	5.860485	0.002602	4.337578	-1
-1712000	1.0057141084	0.09318	0.20935	5.719557	0.002853	4.341193	-1
-1711000	1.0059535640	0.09317	0.20934	5.570085	0.002972	4.341994	-1
-1710000	1.0060629335	0.09326	0.20932	5.416209	0.003027	4.342803	-1
-1709000	1.0060785750	0.09326	0.20932	5.260261	0.003035	4.343241	-1
